v [cm$^{-1}$]    I(v) [$e^{2}$ amu$^{-1}$]    I_Norm(v) [AU]
   500.000000                     0.000501          0.086832
   501.000000                     0.000458          0.079428
   502.000000                     0.000415          0.072012
   503.000000                     0.000375          0.064999
   504.000000                     0.000338          0.058625
   505.000000                     0.000305          0.052988
   506.000000                     0.000277          0.048101
   507.000000                     0.000253          0.043930
   508.000000                     0.000233          0.040418
   509.000000                     0.000216          0.037501
   510.000000                     0.000202          0.035115
   511.000000                     0.000191          0.033200
   512.000000                     0.000183          0.031697
   513.000000                     0.000176          0.030542
   514.000000                     0.000171          0.029661
   515.000000                     0.000167          0.028968
   516.000000                     0.000163          0.028356
   517.000000                     0.000160          0.027715
   518.000000                     0.000155          0.026942
   519.000000                     0.000150          0.025973
   520.000000                     0.000143          0.024795
   521.000000                     0.000135          0.023449
   522.000000                     0.000127          0.022005
   523.000000                     0.000118          0.020542
   524.000000                     0.000110          0.019123
   525.000000                     0.000103          0.017792
   526.000000                     0.000096          0.016571
   527.000000                     0.000089          0.015468
   528.000000                     0.000083          0.014481
   529.000000                     0.000078          0.013600
   530.000000                     0.000074          0.012818
   531.000000                     0.000070          0.012121
   532.000000                     0.000066          0.011500
   533.000000                     0.000063          0.010946
   534.000000                     0.000060          0.010449
   535.000000                     0.000058          0.010002
   536.000000                     0.000055          0.009599
   537.000000                     0.000053          0.009235
   538.000000                     0.000051          0.008905
   539.000000                     0.000050          0.008604
   540.000000                     0.000048          0.008330
   541.000000                     0.000047          0.008079
   542.000000                     0.000045          0.007850
   543.000000                     0.000044          0.007638
   544.000000                     0.000043          0.007444
   545.000000                     0.000042          0.007265
   546.000000                     0.000041          0.007100
   547.000000                     0.000040          0.006947
   548.000000                     0.000039          0.006805
   549.000000                     0.000038          0.006674
   550.000000                     0.000038          0.006552
   551.000000                     0.000037          0.006440
   552.000000                     0.000037          0.006335
   553.000000                     0.000036          0.006238
   554.000000                     0.000035          0.006148
   555.000000                     0.000035          0.006064
   556.000000                     0.000035          0.005986
   557.000000                     0.000034          0.005914
   558.000000                     0.000034          0.005848
   559.000000                     0.000033          0.005786
   560.000000                     0.000033          0.005730
   561.000000                     0.000033          0.005677
   562.000000                     0.000032          0.005630
   563.000000                     0.000032          0.005586
   564.000000                     0.000032          0.005546
   565.000000                     0.000032          0.005510
   566.000000                     0.000032          0.005477
   567.000000                     0.000031          0.005448
   568.000000                     0.000031          0.005422
   569.000000                     0.000031          0.005400
   570.000000                     0.000031          0.005381
   571.000000                     0.000031          0.005365
   572.000000                     0.000031          0.005352
   573.000000                     0.000031          0.005342
   574.000000                     0.000031          0.005335
   575.000000                     0.000031          0.005331
   576.000000                     0.000031          0.005331
   577.000000                     0.000031          0.005333
   578.000000                     0.000031          0.005338
   579.000000                     0.000031          0.005346
   580.000000                     0.000031          0.005358
   581.000000                     0.000031          0.005373
   582.000000                     0.000031          0.005391
   583.000000                     0.000031          0.005412
   584.000000                     0.000031          0.005438
   585.000000                     0.000032          0.005467
   586.000000                     0.000032          0.005500
   587.000000                     0.000032          0.005537
   588.000000                     0.000032          0.005579
   589.000000                     0.000032          0.005626
   590.000000                     0.000033          0.005679
   591.000000                     0.000033          0.005737
   592.000000                     0.000033          0.005802
   593.000000                     0.000034          0.005875
   594.000000                     0.000034          0.005955
   595.000000                     0.000035          0.006045
   596.000000                     0.000035          0.006146
   597.000000                     0.000036          0.006258
   598.000000                     0.000037          0.006384
   599.000000                     0.000038          0.006525
   600.000000                     0.000039          0.006684
   601.000000                     0.000040          0.006862
   602.000000                     0.000041          0.007061
   603.000000                     0.000042          0.007283
   604.000000                     0.000043          0.007526
   605.000000                     0.000045          0.007788
   606.000000                     0.000046          0.008061
   607.000000                     0.000048          0.008334
   608.000000                     0.000050          0.008588
   609.000000                     0.000051          0.008804
   610.000000                     0.000052          0.008960
   611.000000                     0.000052          0.009046
   612.000000                     0.000052          0.009061
   613.000000                     0.000052          0.009018
   614.000000                     0.000052          0.008936
   615.000000                     0.000051          0.008837
   616.000000                     0.000050          0.008738
   617.000000                     0.000050          0.008653
   618.000000                     0.000050          0.008589
   619.000000                     0.000049          0.008550
   620.000000                     0.000049          0.008536
   621.000000                     0.000049          0.008547
   622.000000                     0.000049          0.008582
   623.000000                     0.000050          0.008639
   624.000000                     0.000050          0.008716
   625.000000                     0.000051          0.008813
   626.000000                     0.000051          0.008928
   627.000000                     0.000052          0.009061
   628.000000                     0.000053          0.009211
   629.000000                     0.000054          0.009377
   630.000000                     0.000055          0.009560
   631.000000                     0.000056          0.009759
   632.000000                     0.000058          0.009976
   633.000000                     0.000059          0.010209
   634.000000                     0.000060          0.010461
   635.000000                     0.000062          0.010732
   636.000000                     0.000064          0.011023
   637.000000                     0.000065          0.011334
   638.000000                     0.000067          0.011668
   639.000000                     0.000069          0.012026
   640.000000                     0.000072          0.012410
   641.000000                     0.000074          0.012822
   642.000000                     0.000076          0.013264
   643.000000                     0.000079          0.013738
   644.000000                     0.000082          0.014248
   645.000000                     0.000085          0.014797
   646.000000                     0.000089          0.015389
   647.000000                     0.000092          0.016028
   648.000000                     0.000096          0.016719
   649.000000                     0.000101          0.017467
   650.000000                     0.000105          0.018279
   651.000000                     0.000110          0.019161
   652.000000                     0.000116          0.020123
   653.000000                     0.000122          0.021173
   654.000000                     0.000129          0.022323
   655.000000                     0.000136          0.023584
   656.000000                     0.000144          0.024973
   657.000000                     0.000153          0.026505
   658.000000                     0.000163          0.028201
   659.000000                     0.000173          0.030083
   660.000000                     0.000186          0.032180
   661.000000                     0.000199          0.034524
   662.000000                     0.000214          0.037152
   663.000000                     0.000231          0.040111
   664.000000                     0.000250          0.043453
   665.000000                     0.000272          0.047242
   666.000000                     0.000297          0.051554
   667.000000                     0.000326          0.056477
   668.000000                     0.000358          0.062118
   669.000000                     0.000395          0.068597
   670.000000                     0.000438          0.076054
   671.000000                     0.000488          0.084644
   672.000000                     0.000545          0.094529
   673.000000                     0.000610          0.105865
   674.000000                     0.000685          0.118772
   675.000000                     0.000768          0.133284
   676.000000                     0.000860          0.149274
   677.000000                     0.000959          0.166350
   678.000000                     0.001059          0.183742
   679.000000                     0.001154          0.200229
   680.000000                     0.001235          0.214188
   681.000000                     0.001290          0.223858
   682.000000                     0.001313          0.227802
   683.000000                     0.001299          0.225400
   684.000000                     0.001251          0.217090
   685.000000                     0.001177          0.204196
   686.000000                     0.001086          0.188462
   687.000000                     0.000989          0.171563
   688.000000                     0.000892          0.154802
   689.000000                     0.000801          0.139029
   690.000000                     0.000719          0.124696
   691.000000                     0.000645          0.111972
   692.000000                     0.000581          0.100845
   693.000000                     0.000526          0.091211
   694.000000                     0.000478          0.082917
   695.000000                     0.000437          0.075805
   696.000000                     0.000402          0.069718
   697.000000                     0.000372          0.064519
   698.000000                     0.000346          0.060084
   699.000000                     0.000325          0.056308
   700.000000                     0.000306          0.053103
   701.000000                     0.000290          0.050395
   702.000000                     0.000277          0.048122
   703.000000                     0.000267          0.046234
   704.000000                     0.000258          0.044689
   705.000000                     0.000250          0.043453
   706.000000                     0.000245          0.042501
   707.000000                     0.000241          0.041809
   708.000000                     0.000238          0.041364
   709.000000                     0.000237          0.041154
   710.000000                     0.000237          0.041172
   711.000000                     0.000239          0.041415
   712.000000                     0.000241          0.041884
   713.000000                     0.000245          0.042584
   714.000000                     0.000251          0.043524
   715.000000                     0.000258          0.044717
   716.000000                     0.000266          0.046181
   717.000000                     0.000276          0.047939
   718.000000                     0.000288          0.050019
   719.000000                     0.000302          0.052457
   720.000000                     0.000319          0.055297
   721.000000                     0.000338          0.058590
   722.000000                     0.000360          0.062400
   723.000000                     0.000385          0.066802
   724.000000                     0.000414          0.071889
   725.000000                     0.000448          0.077770
   726.000000                     0.000488          0.084573
   727.000000                     0.000533          0.092452
   728.000000                     0.000586          0.101585
   729.000000                     0.000647          0.112175
   730.000000                     0.000717          0.124447
   731.000000                     0.000799          0.138637
   732.000000                     0.000893          0.154966
   733.000000                     0.001001          0.173600
   734.000000                     0.001122          0.194569
   735.000000                     0.001255          0.217656
   736.000000                     0.001396          0.242245
   737.000000                     0.001540          0.267150
   738.000000                     0.001675          0.290529
   739.000000                     0.001787          0.309977
   740.000000                     0.001862          0.322939
   741.000000                     0.001887          0.327411
   742.000000                     0.001860          0.322632
   743.000000                     0.001783          0.309385
   744.000000                     0.001670          0.289691
   745.000000                     0.001534          0.266103
   746.000000                     0.001389          0.241021
   747.000000                     0.001247          0.216276
   748.000000                     0.001113          0.193041
   749.000000                     0.000991          0.171927
   750.000000                     0.000883          0.153144
   751.000000                     0.000788          0.136656
   752.000000                     0.000705          0.122298
   753.000000                     0.000633          0.109845
   754.000000                     0.000571          0.099061
   755.000000                     0.000517          0.089720
   756.000000                     0.000470          0.081619
   757.000000                     0.000430          0.074576
   758.000000                     0.000395          0.068440
   759.000000                     0.000364          0.063079
   760.000000                     0.000337          0.058381
   761.000000                     0.000313          0.054255
   762.000000                     0.000292          0.050621
   763.000000                     0.000273          0.047414
   764.000000                     0.000257          0.044579
   765.000000                     0.000243          0.042069
   766.000000                     0.000230          0.039844
   767.000000                     0.000218          0.037872
   768.000000                     0.000208          0.036124
   769.000000                     0.000199          0.034577
   770.000000                     0.000191          0.033212
   771.000000                     0.000185          0.032011
   772.000000                     0.000178          0.030960
   773.000000                     0.000173          0.030048
   774.000000                     0.000169          0.029265
   775.000000                     0.000165          0.028605
   776.000000                     0.000162          0.028060
   777.000000                     0.000159          0.027626
   778.000000                     0.000157          0.027302
   779.000000                     0.000156          0.027085
   780.000000                     0.000156          0.026976
   781.000000                     0.000156          0.026977
   782.000000                     0.000156          0.027091
   783.000000                     0.000157          0.027322
   784.000000                     0.000160          0.027678
   785.000000                     0.000162          0.028169
   786.000000                     0.000166          0.028804
   787.000000                     0.000171          0.029600
   788.000000                     0.000176          0.030572
   789.000000                     0.000183          0.031744
   790.000000                     0.000191          0.033140
   791.000000                     0.000201          0.034792
   792.000000                     0.000212          0.036737
   793.000000                     0.000225          0.039021
   794.000000                     0.000240          0.041697
   795.000000                     0.000258          0.044829
   796.000000                     0.000280          0.048490
   797.000000                     0.000304          0.052765
   798.000000                     0.000333          0.057747
   799.000000                     0.000366          0.063535
   800.000000                     0.000405          0.070220
   801.000000                     0.000449          0.077870
   802.000000                     0.000499          0.086498
   803.000000                     0.000553          0.096011
   804.000000                     0.000612          0.106150
   805.000000                     0.000671          0.116418
   806.000000                     0.000727          0.126046
   807.000000                     0.000773          0.134028
   808.000000                     0.000803          0.139304
   809.000000                     0.000813          0.141041
   810.000000                     0.000801          0.138930
   811.000000                     0.000768          0.133304
   812.000000                     0.000721          0.125008
   813.000000                     0.000664          0.115106
   814.000000                     0.000603          0.104595
   815.000000                     0.000543          0.094235
   816.000000                     0.000487          0.084511
   817.000000                     0.000436          0.075676
   818.000000                     0.000391          0.067814
   819.000000                     0.000351          0.060912
   820.000000                     0.000316          0.054899
   821.000000                     0.000286          0.049681
   822.000000                     0.000260          0.045162
   823.000000                     0.000238          0.041246
   824.000000                     0.000218          0.037849
   825.000000                     0.000201          0.034897
