v [cm$^{-1}$]    I(v) [$e^{2}$ amu$^{-1}$]    I_Norm(v) [AU]
   500.000000                     0.000025          0.016364
   501.000000                     0.000025          0.016950
   502.000000                     0.000026          0.017572
   503.000000                     0.000027          0.018233
   504.000000                     0.000028          0.018937
   505.000000                     0.000030          0.019688
   506.000000                     0.000031          0.020490
   507.000000                     0.000032          0.021348
   508.000000                     0.000033          0.022267
   509.000000                     0.000035          0.023254
   510.000000                     0.000037          0.024314
   511.000000                     0.000038          0.025456
   512.000000                     0.000040          0.026688
   513.000000                     0.000042          0.028019
   514.000000                     0.000044          0.029462
   515.000000                     0.000047          0.031027
   516.000000                     0.000049          0.032731
   517.000000                     0.000052          0.034588
   518.000000                     0.000055          0.036619
   519.000000                     0.000058          0.038844
   520.000000                     0.000062          0.041289
   521.000000                     0.000066          0.043983
   522.000000                     0.000071          0.046960
   523.000000                     0.000076          0.050260
   524.000000                     0.000081          0.053929
   525.000000                     0.000087          0.058022
   526.000000                     0.000094          0.062604
   527.000000                     0.000102          0.067750
   528.000000                     0.000111          0.073551
   529.000000                     0.000120          0.080114
   530.000000                     0.000132          0.087566
   531.000000                     0.000144          0.096058
   532.000000                     0.000159          0.105769
   533.000000                     0.000176          0.116908
   534.000000                     0.000195          0.129719
   535.000000                     0.000217          0.144481
   536.000000                     0.000243          0.161504
   537.000000                     0.000272          0.181112
   538.000000                     0.000306          0.203617
   539.000000                     0.000344          0.229257
   540.000000                     0.000388          0.258102
   541.000000                     0.000436          0.289897
   542.000000                     0.000487          0.323856
   543.000000                     0.000539          0.358438
   544.000000                     0.000588          0.391201
   545.000000                     0.000629          0.418901
   546.000000                     0.000658          0.438016
   547.000000                     0.000670          0.445674
   548.000000                     0.000662          0.440629
   549.000000                     0.000637          0.423740
   550.000000                     0.000597          0.397631
   551.000000                     0.000550          0.365770
   552.000000                     0.000498          0.331497
   553.000000                     0.000447          0.297424
   554.000000                     0.000399          0.265263
   555.000000                     0.000354          0.235932
   556.000000                     0.000315          0.209778
   557.000000                     0.000281          0.186787
   558.000000                     0.000251          0.166748
   559.000000                     0.000224          0.149359
   560.000000                     0.000202          0.134296
   561.000000                     0.000182          0.121246
   562.000000                     0.000165          0.109923
   563.000000                     0.000150          0.100077
   564.000000                     0.000137          0.091491
   565.000000                     0.000126          0.083981
   566.000000                     0.000116          0.077391
   567.000000                     0.000108          0.071588
   568.000000                     0.000100          0.066463
   569.000000                     0.000093          0.061921
   570.000000                     0.000087          0.057885
   571.000000                     0.000082          0.054287
   572.000000                     0.000077          0.051071
   573.000000                     0.000072          0.048189
   574.000000                     0.000069          0.045600
   575.000000                     0.000065          0.043269
   576.000000                     0.000062          0.041167
   577.000000                     0.000059          0.039267
   578.000000                     0.000056          0.037547
   579.000000                     0.000054          0.035988
   580.000000                     0.000052          0.034574
   581.000000                     0.000050          0.033289
   582.000000                     0.000048          0.032122
   583.000000                     0.000047          0.031060
   584.000000                     0.000045          0.030095
   585.000000                     0.000044          0.029217
   586.000000                     0.000043          0.028419
   587.000000                     0.000042          0.027695
   588.000000                     0.000041          0.027039
   589.000000                     0.000040          0.026446
   590.000000                     0.000039          0.025910
   591.000000                     0.000038          0.025429
   592.000000                     0.000038          0.024998
   593.000000                     0.000037          0.024616
   594.000000                     0.000036          0.024278
   595.000000                     0.000036          0.023983
   596.000000                     0.000036          0.023729
   597.000000                     0.000035          0.023514
   598.000000                     0.000035          0.023338
   599.000000                     0.000035          0.023198
   600.000000                     0.000035          0.023096
   601.000000                     0.000035          0.023029
   602.000000                     0.000035          0.022999
   603.000000                     0.000035          0.023006
   604.000000                     0.000035          0.023051
   605.000000                     0.000035          0.023134
   606.000000                     0.000035          0.023259
   607.000000                     0.000035          0.023425
   608.000000                     0.000036          0.023636
   609.000000                     0.000036          0.023895
   610.000000                     0.000036          0.024201
   611.000000                     0.000037          0.024556
   612.000000                     0.000037          0.024958
   613.000000                     0.000038          0.025401
   614.000000                     0.000039          0.025871
   615.000000                     0.000040          0.026351
   616.000000                     0.000040          0.026814
   617.000000                     0.000041          0.027235
   618.000000                     0.000041          0.027593
   619.000000                     0.000042          0.027879
   620.000000                     0.000042          0.028103
   621.000000                     0.000043          0.028287
   622.000000                     0.000043          0.028459
   623.000000                     0.000043          0.028646
   624.000000                     0.000043          0.028868
   625.000000                     0.000044          0.029141
   626.000000                     0.000044          0.029472
   627.000000                     0.000045          0.029865
   628.000000                     0.000046          0.030323
   629.000000                     0.000046          0.030846
   630.000000                     0.000047          0.031433
   631.000000                     0.000048          0.032086
   632.000000                     0.000049          0.032805
   633.000000                     0.000050          0.033590
   634.000000                     0.000052          0.034445
   635.000000                     0.000053          0.035370
   636.000000                     0.000055          0.036370
   637.000000                     0.000056          0.037449
   638.000000                     0.000058          0.038609
   639.000000                     0.000060          0.039858
   640.000000                     0.000062          0.041201
   641.000000                     0.000064          0.042645
   642.000000                     0.000066          0.044198
   643.000000                     0.000069          0.045869
   644.000000                     0.000072          0.047669
   645.000000                     0.000075          0.049607
   646.000000                     0.000078          0.051699
   647.000000                     0.000081          0.053958
   648.000000                     0.000085          0.056401
   649.000000                     0.000089          0.059047
   650.000000                     0.000093          0.061918
   651.000000                     0.000098          0.065037
   652.000000                     0.000103          0.068434
   653.000000                     0.000108          0.072140
   654.000000                     0.000114          0.076192
   655.000000                     0.000121          0.080632
   656.000000                     0.000128          0.085511
   657.000000                     0.000137          0.090883
   658.000000                     0.000145          0.096816
   659.000000                     0.000155          0.103387
   660.000000                     0.000166          0.110686
   661.000000                     0.000179          0.118820
   662.000000                     0.000192          0.127912
   663.000000                     0.000208          0.138112
   664.000000                     0.000225          0.149592
   665.000000                     0.000244          0.162561
   666.000000                     0.000266          0.177264
   667.000000                     0.000291          0.193993
   668.000000                     0.000320          0.213093
   669.000000                     0.000353          0.234973
   670.000000                     0.000391          0.260107
   671.000000                     0.000434          0.289044
   672.000000                     0.000484          0.322399
   673.000000                     0.000542          0.360836
   674.000000                     0.000609          0.405016
   675.000000                     0.000684          0.455508
   676.000000                     0.000770          0.512613
   677.000000                     0.000866          0.576099
   678.000000                     0.000969          0.644811
   679.000000                     0.001076          0.716203
   680.000000                     0.001181          0.785942
   681.000000                     0.001274          0.847874
   682.000000                     0.001344          0.894759
   683.000000                     0.001382          0.919911
   684.000000                     0.001381          0.919322
   685.000000                     0.001342          0.893160
   686.000000                     0.001271          0.845708
   687.000000                     0.001178          0.783767
   688.000000                     0.001074          0.714547
   689.000000                     0.000968          0.644078
   690.000000                     0.000866          0.576554
   691.000000                     0.000773          0.514401
   692.000000                     0.000689          0.458690
   693.000000                     0.000615          0.409604
   694.000000                     0.000551          0.366816
   695.000000                     0.000495          0.329749
   696.000000                     0.000447          0.297742
   697.000000                     0.000406          0.270136
   698.000000                     0.000370          0.246325
   699.000000                     0.000339          0.225769
   700.000000                     0.000313          0.208003
   701.000000                     0.000289          0.192628
   702.000000                     0.000269          0.179308
   703.000000                     0.000252          0.167760
   704.000000                     0.000237          0.157747
   705.000000                     0.000224          0.149072
   706.000000                     0.000213          0.141568
   707.000000                     0.000203          0.135097
   708.000000                     0.000195          0.129545
   709.000000                     0.000188          0.124816
   710.000000                     0.000182          0.120831
   711.000000                     0.000177          0.117525
   712.000000                     0.000173          0.114847
   713.000000                     0.000169          0.112753
   714.000000                     0.000167          0.111211
   715.000000                     0.000166          0.110198
   716.000000                     0.000165          0.109698
   717.000000                     0.000165          0.109703
   718.000000                     0.000166          0.110210
   719.000000                     0.000167          0.111226
   720.000000                     0.000169          0.112765
   721.000000                     0.000173          0.114846
   722.000000                     0.000177          0.117500
   723.000000                     0.000181          0.120763
   724.000000                     0.000187          0.124685
   725.000000                     0.000194          0.129324
   726.000000                     0.000202          0.134752
   727.000000                     0.000212          0.141058
   728.000000                     0.000223          0.148347
   729.000000                     0.000236          0.156745
   730.000000                     0.000250          0.166404
   731.000000                     0.000267          0.177505
   732.000000                     0.000286          0.190264
   733.000000                     0.000308          0.204940
   734.000000                     0.000333          0.221842
   735.000000                     0.000363          0.241335
   736.000000                     0.000396          0.263854
   737.000000                     0.000436          0.289905
   738.000000                     0.000481          0.320074
   739.000000                     0.000533          0.355021
   740.000000                     0.000594          0.395460
   741.000000                     0.000664          0.442107
   742.000000                     0.000745          0.495586
   743.000000                     0.000836          0.556247
   744.000000                     0.000937          0.623887
   745.000000                     0.001048          0.697336
   746.000000                     0.001163          0.773965
   747.000000                     0.001276          0.849250
   748.000000                     0.001377          0.916720
   749.000000                     0.001455          0.968687
   750.000000                     0.001499          0.997948
   751.000000                     0.001502          1.000000
   752.000000                     0.001464          0.974655
   753.000000                     0.001391          0.926043
   754.000000                     0.001294          0.861026
   755.000000                     0.001183          0.787064
   756.000000                     0.001068          0.710577
   757.000000                     0.000956          0.636226
   758.000000                     0.000852          0.566900
   759.000000                     0.000757          0.504055
   760.000000                     0.000673          0.448147
   761.000000                     0.000599          0.399005
   762.000000                     0.000535          0.356119
   763.000000                     0.000479          0.318829
   764.000000                     0.000430          0.286442
   765.000000                     0.000388          0.258295
   766.000000                     0.000351          0.233791
   767.000000                     0.000319          0.212402
   768.000000                     0.000291          0.193675
   769.000000                     0.000266          0.177222
   770.000000                     0.000244          0.162715
   771.000000                     0.000225          0.149879
   772.000000                     0.000208          0.138480
   773.000000                     0.000193          0.128320
   774.000000                     0.000179          0.119234
   775.000000                     0.000167          0.111081
   776.000000                     0.000156          0.103740
   777.000000                     0.000146          0.097112
   778.000000                     0.000137          0.091108
   779.000000                     0.000129          0.085654
   780.000000                     0.000121          0.080686
   781.000000                     0.000114          0.076149
   782.000000                     0.000108          0.071995
   783.000000                     0.000102          0.068183
   784.000000                     0.000097          0.064677
   785.000000                     0.000092          0.061444
   786.000000                     0.000088          0.058459
   787.000000                     0.000084          0.055695
   788.000000                     0.000080          0.053132
   789.000000                     0.000076          0.050750
   790.000000                     0.000073          0.048534
   791.000000                     0.000070          0.046468
   792.000000                     0.000067          0.044539
   793.000000                     0.000064          0.042735
   794.000000                     0.000062          0.041046
   795.000000                     0.000059          0.039461
   796.000000                     0.000057          0.037974
   797.000000                     0.000055          0.036575
   798.000000                     0.000053          0.035257
   799.000000                     0.000051          0.034016
   800.000000                     0.000049          0.032844
   801.000000                     0.000048          0.031738
   802.000000                     0.000046          0.030691
   803.000000                     0.000045          0.029700
   804.000000                     0.000043          0.028761
   805.000000                     0.000042          0.027871
   806.000000                     0.000041          0.027026
   807.000000                     0.000039          0.026222
   808.000000                     0.000038          0.025459
   809.000000                     0.000037          0.024732
   810.000000                     0.000036          0.024040
   811.000000                     0.000035          0.023381
   812.000000                     0.000034          0.022752
   813.000000                     0.000033          0.022151
   814.000000                     0.000032          0.021578
   815.000000                     0.000032          0.021031
   816.000000                     0.000031          0.020507
   817.000000                     0.000030          0.020006
   818.000000                     0.000029          0.019527
   819.000000                     0.000029          0.019068
   820.000000                     0.000028          0.018628
   821.000000                     0.000027          0.018206
   822.000000                     0.000027          0.017802
   823.000000                     0.000026          0.017415
   824.000000                     0.000026          0.017043
   825.000000                     0.000025          0.016686
