v [cm$^{-1}$]    I(v) [$\AA^{4}$ amu$^{-1}$]    I_Norm(v) [AU]
    79.000000                       0.000863          0.000187
    80.000000                       0.000877          0.000190
    81.000000                       0.000893          0.000193
    82.000000                       0.000908          0.000196
    83.000000                       0.000925          0.000200
    84.000000                       0.000942          0.000204
    85.000000                       0.000960          0.000208
    86.000000                       0.000978          0.000212
    87.000000                       0.000998          0.000216
    88.000000                       0.001018          0.000220
    89.000000                       0.001040          0.000225
    90.000000                       0.001063          0.000230
    91.000000                       0.001087          0.000235
    92.000000                       0.001112          0.000241
    93.000000                       0.001139          0.000247
    94.000000                       0.001168          0.000253
    95.000000                       0.001199          0.000259
    96.000000                       0.001232          0.000266
    97.000000                       0.001267          0.000274
    98.000000                       0.001305          0.000282
    99.000000                       0.001346          0.000291
   100.000000                       0.001390          0.000301
   101.000000                       0.001439          0.000311
   102.000000                       0.001492          0.000323
   103.000000                       0.001551          0.000335
   104.000000                       0.001615          0.000349
   105.000000                       0.001687          0.000365
   106.000000                       0.001768          0.000382
   107.000000                       0.001859          0.000402
   108.000000                       0.001962          0.000424
   109.000000                       0.002080          0.000450
   110.000000                       0.002217          0.000480
   111.000000                       0.002378          0.000514
   112.000000                       0.002567          0.000555
   113.000000                       0.002793          0.000604
   114.000000                       0.003069          0.000664
   115.000000                       0.003409          0.000737
   116.000000                       0.003836          0.000830
   117.000000                       0.004386          0.000949
   118.000000                       0.005111          0.001106
   119.000000                       0.006095          0.001319
   120.000000                       0.007483          0.001619
   121.000000                       0.009530          0.002062
   122.000000                       0.012726          0.002753
   123.000000                       0.018097          0.003915
   124.000000                       0.028049          0.006068
   125.000000                       0.048947          0.010589
   126.000000                       0.098303          0.021267
   127.000000                       0.188510          0.040783
   128.000000                       0.165532          0.035812
   129.000000                       0.081042          0.017533
   130.000000                       0.041873          0.009059
   131.000000                       0.024944          0.005397
   132.000000                       0.016620          0.003596
   133.000000                       0.012021          0.002601
   134.000000                       0.009247          0.002001
   135.000000                       0.007460          0.001614
   136.000000                       0.006249          0.001352
   137.000000                       0.005396          0.001167
   138.000000                       0.004778          0.001034
   139.000000                       0.004319          0.000934
   140.000000                       0.003972          0.000859
   141.000000                       0.003707          0.000802
   142.000000                       0.003503          0.000758
   143.000000                       0.003345          0.000724
   144.000000                       0.003223          0.000697
   145.000000                       0.003130          0.000677
   146.000000                       0.003060          0.000662
   147.000000                       0.003009          0.000651
   148.000000                       0.002973          0.000643
   149.000000                       0.002951          0.000639
   150.000000                       0.002941          0.000636
   151.000000                       0.002941          0.000636
   152.000000                       0.002949          0.000638
   153.000000                       0.002966          0.000642
   154.000000                       0.002990          0.000647
   155.000000                       0.003021          0.000654
   156.000000                       0.003058          0.000662
   157.000000                       0.003101          0.000671
   158.000000                       0.003151          0.000682
   159.000000                       0.003206          0.000694
   160.000000                       0.003266          0.000707
   161.000000                       0.003333          0.000721
   162.000000                       0.003405          0.000737
   163.000000                       0.003483          0.000754
   164.000000                       0.003567          0.000772
   165.000000                       0.003657          0.000791
   166.000000                       0.003753          0.000812
   167.000000                       0.003856          0.000834
   168.000000                       0.003966          0.000858
   169.000000                       0.004083          0.000883
   170.000000                       0.004208          0.000910
   171.000000                       0.004341          0.000939
   172.000000                       0.004483          0.000970
   173.000000                       0.004634          0.001002
   174.000000                       0.004794          0.001037
   175.000000                       0.004966          0.001074
   176.000000                       0.005149          0.001114
   177.000000                       0.005344          0.001156
   178.000000                       0.005553          0.001201
   179.000000                       0.005777          0.001250
   180.000000                       0.006016          0.001301
   181.000000                       0.006272          0.001357
   182.000000                       0.006547          0.001416
   183.000000                       0.006843          0.001480
   184.000000                       0.007162          0.001549
   185.000000                       0.007505          0.001624
   186.000000                       0.007876          0.001704
   187.000000                       0.008277          0.001791
   188.000000                       0.008712          0.001885
   189.000000                       0.009185          0.001987
   190.000000                       0.009700          0.002098
   191.000000                       0.010261          0.002220
   192.000000                       0.010876          0.002353
   193.000000                       0.011550          0.002499
   194.000000                       0.012291          0.002659
   195.000000                       0.013109          0.002836
   196.000000                       0.014014          0.003032
   197.000000                       0.015019          0.003249
   198.000000                       0.016139          0.003492
   199.000000                       0.017393          0.003763
   200.000000                       0.018801          0.004067
   201.000000                       0.020390          0.004411
   202.000000                       0.022191          0.004801
   203.000000                       0.024244          0.005245
   204.000000                       0.026596          0.005754
   205.000000                       0.029308          0.006341
   206.000000                       0.032454          0.007021
   207.000000                       0.036130          0.007817
   208.000000                       0.040457          0.008753
   209.000000                       0.045592          0.009864
   210.000000                       0.051740          0.011194
   211.000000                       0.059170          0.012801
   212.000000                       0.068238          0.014763
   213.000000                       0.079426          0.017183
   214.000000                       0.093375          0.020201
   215.000000                       0.110952          0.024004
   216.000000                       0.133303          0.028839
   217.000000                       0.161895          0.035025
   218.000000                       0.198447          0.042933
   219.000000                       0.244539          0.052904
   220.000000                       0.300475          0.065006
   221.000000                       0.362862          0.078503
   222.000000                       0.421385          0.091164
   223.000000                       0.458694          0.099235
   224.000000                       0.459363          0.099380
   225.000000                       0.423089          0.091533
   226.000000                       0.364987          0.078962
   227.000000                       0.302542          0.065453
   228.000000                       0.246337          0.053293
   229.000000                       0.199941          0.043256
   230.000000                       0.163126          0.035291
   231.000000                       0.134330          0.029061
   232.000000                       0.111831          0.024194
   233.000000                       0.094151          0.020369
   234.000000                       0.080134          0.017337
   235.000000                       0.068908          0.014908
   236.000000                       0.059823          0.012942
   237.000000                       0.052396          0.011336
   238.000000                       0.046268          0.010010
   239.000000                       0.041169          0.008907
   240.000000                       0.036895          0.007982
   241.000000                       0.033291          0.007202
   242.000000                       0.030239          0.006542
   243.000000                       0.027650          0.005982
   244.000000                       0.025458          0.005508
   245.000000                       0.023616          0.005109
   246.000000                       0.022099          0.004781
   247.000000                       0.020905          0.004523
   248.000000                       0.020065          0.004341
   249.000000                       0.019672          0.004256
   250.000000                       0.019942          0.004314
   251.000000                       0.021391          0.004628
   252.000000                       0.025396          0.005494
   253.000000                       0.036359          0.007866
   254.000000                       0.071068          0.015375
   255.000000                       0.141594          0.030633
   256.000000                       0.080226          0.017356
   257.000000                       0.037057          0.008017
   258.000000                       0.022729          0.004917
   259.000000                       0.016706          0.003614
   260.000000                       0.013571          0.002936
   261.000000                       0.011672          0.002525
   262.000000                       0.010390          0.002248
   263.000000                       0.009454          0.002045
   264.000000                       0.008731          0.001889
   265.000000                       0.008147          0.001763
   266.000000                       0.007660          0.001657
   267.000000                       0.007245          0.001567
   268.000000                       0.006883          0.001489
   269.000000                       0.006564          0.001420
   270.000000                       0.006280          0.001359
   271.000000                       0.006024          0.001303
   272.000000                       0.005792          0.001253
   273.000000                       0.005580          0.001207
   274.000000                       0.005387          0.001165
   275.000000                       0.005208          0.001127
   276.000000                       0.005044          0.001091
   277.000000                       0.004892          0.001058
   278.000000                       0.004751          0.001028
   279.000000                       0.004620          0.000999
   280.000000                       0.004498          0.000973
   281.000000                       0.004384          0.000948
   282.000000                       0.004278          0.000926
   283.000000                       0.004179          0.000904
   284.000000                       0.004087          0.000884
   285.000000                       0.004001          0.000866
   286.000000                       0.003921          0.000848
   287.000000                       0.003846          0.000832
   288.000000                       0.003776          0.000817
   289.000000                       0.003710          0.000803
   290.000000                       0.003650          0.000790
   291.000000                       0.003593          0.000777
   292.000000                       0.003541          0.000766
   293.000000                       0.003492          0.000755
   294.000000                       0.003447          0.000746
   295.000000                       0.003406          0.000737
   296.000000                       0.003368          0.000729
   297.000000                       0.003334          0.000721
   298.000000                       0.003303          0.000715
   299.000000                       0.003276          0.000709
   300.000000                       0.003251          0.000703
   301.000000                       0.003230          0.000699
   302.000000                       0.003212          0.000695
   303.000000                       0.003197          0.000692
   304.000000                       0.003186          0.000689
   305.000000                       0.003178          0.000688
   306.000000                       0.003174          0.000687
   307.000000                       0.003173          0.000686
   308.000000                       0.003176          0.000687
   309.000000                       0.003183          0.000689
   310.000000                       0.003195          0.000691
   311.000000                       0.003211          0.000695
   312.000000                       0.003233          0.000699
   313.000000                       0.003261          0.000705
   314.000000                       0.003295          0.000713
   315.000000                       0.003337          0.000722
   316.000000                       0.003387          0.000733
   317.000000                       0.003448          0.000746
   318.000000                       0.003520          0.000762
   319.000000                       0.003607          0.000780
   320.000000                       0.003712          0.000803
   321.000000                       0.003838          0.000830
   322.000000                       0.003991          0.000863
   323.000000                       0.004179          0.000904
   324.000000                       0.004412          0.000954
   325.000000                       0.004705          0.001018
   326.000000                       0.005081          0.001099
   327.000000                       0.005573          0.001206
   328.000000                       0.006234          0.001349
   329.000000                       0.007151          0.001547
   330.000000                       0.008476          0.001834
   331.000000                       0.010493          0.002270
   332.000000                       0.013780          0.002981
   333.000000                       0.019666          0.004255
   334.000000                       0.031735          0.006866
   335.000000                       0.062153          0.013446
   336.000000                       0.165214          0.035743
   337.000000                       0.401880          0.086944
   338.000000                       0.172171          0.037248
   339.000000                       0.064073          0.013862
   340.000000                       0.032526          0.007037
   341.000000                       0.020154          0.004360
   342.000000                       0.014183          0.003068
   343.000000                       0.010884          0.002355
   344.000000                       0.008887          0.001923
   345.000000                       0.007597          0.001643
   346.000000                       0.006723          0.001455
   347.000000                       0.006111          0.001322
   348.000000                       0.005673          0.001227
   349.000000                       0.005354          0.001158
   350.000000                       0.005121          0.001108
   351.000000                       0.004952          0.001071
   352.000000                       0.004833          0.001046
   353.000000                       0.004752          0.001028
   354.000000                       0.004704          0.001018
   355.000000                       0.004684          0.001013
   356.000000                       0.004689          0.001014
   357.000000                       0.004717          0.001021
   358.000000                       0.004769          0.001032
   359.000000                       0.004846          0.001048
   360.000000                       0.004949          0.001071
   361.000000                       0.005084          0.001100
   362.000000                       0.005258          0.001137
   363.000000                       0.005481          0.001186
   364.000000                       0.005769          0.001248
   365.000000                       0.006151          0.001331
   366.000000                       0.006670          0.001443
   367.000000                       0.007401          0.001601
   368.000000                       0.008487          0.001836
   369.000000                       0.010212          0.002209
   370.000000                       0.013216          0.002859
   371.000000                       0.019185          0.004151
   372.000000                       0.033683          0.007287
   373.000000                       0.081701          0.017675
   374.000000                       0.242175          0.052393
   375.000000                       0.127495          0.027583
   376.000000                       0.045315          0.009804
   377.000000                       0.023594          0.005104
   378.000000                       0.015642          0.003384
   379.000000                       0.011989          0.002594
   380.000000                       0.010063          0.002177
   381.000000                       0.008958          0.001938
   382.000000                       0.008293          0.001794
   383.000000                       0.007885          0.001706
   384.000000                       0.007640          0.001653
   385.000000                       0.007502          0.001623
   386.000000                       0.007441          0.001610
   387.000000                       0.007436          0.001609
   388.000000                       0.007474          0.001617
   389.000000                       0.007547          0.001633
   390.000000                       0.007648          0.001655
   391.000000                       0.007774          0.001682
   392.000000                       0.007922          0.001714
   393.000000                       0.008091          0.001750
   394.000000                       0.008278          0.001791
