v [cm$^{-1}$]    I(v) [$e^{2}$ amu$^{-1}$]    I_Norm(v) [AU]
   500.000000                     0.000444          0.052830
   501.000000                     0.000430          0.051157
   502.000000                     0.000406          0.048340
   503.000000                     0.000376          0.044777
   504.000000                     0.000343          0.040869
   505.000000                     0.000310          0.036940
   506.000000                     0.000279          0.033210
   507.000000                     0.000250          0.029802
   508.000000                     0.000225          0.026766
   509.000000                     0.000202          0.024108
   510.000000                     0.000183          0.021806
   511.000000                     0.000167          0.019827
   512.000000                     0.000152          0.018134
   513.000000                     0.000140          0.016692
   514.000000                     0.000130          0.015467
   515.000000                     0.000121          0.014432
   516.000000                     0.000114          0.013562
   517.000000                     0.000108          0.012836
   518.000000                     0.000103          0.012239
   519.000000                     0.000099          0.011757
   520.000000                     0.000096          0.011380
   521.000000                     0.000093          0.011100
   522.000000                     0.000092          0.010913
   523.000000                     0.000091          0.010814
   524.000000                     0.000091          0.010804
   525.000000                     0.000091          0.010884
   526.000000                     0.000093          0.011056
   527.000000                     0.000095          0.011328
   528.000000                     0.000098          0.011707
   529.000000                     0.000103          0.012204
   530.000000                     0.000108          0.012833
   531.000000                     0.000114          0.013608
   532.000000                     0.000122          0.014548
   533.000000                     0.000132          0.015673
   534.000000                     0.000143          0.016998
   535.000000                     0.000156          0.018536
   536.000000                     0.000170          0.020285
   537.000000                     0.000187          0.022220
   538.000000                     0.000204          0.024278
   539.000000                     0.000221          0.026346
   540.000000                     0.000237          0.028253
   541.000000                     0.000250          0.029783
   542.000000                     0.000258          0.030718
   543.000000                     0.000260          0.030899
   544.000000                     0.000254          0.030284
   545.000000                     0.000243          0.028964
   546.000000                     0.000228          0.027128
   547.000000                     0.000210          0.024998
   548.000000                     0.000191          0.022776
   549.000000                     0.000173          0.020608
   550.000000                     0.000156          0.018588
   551.000000                     0.000141          0.016759
   552.000000                     0.000127          0.015136
   553.000000                     0.000115          0.013713
   554.000000                     0.000105          0.012473
   555.000000                     0.000096          0.011396
   556.000000                     0.000088          0.010462
   557.000000                     0.000081          0.009651
   558.000000                     0.000075          0.008947
   559.000000                     0.000070          0.008333
   560.000000                     0.000065          0.007796
   561.000000                     0.000062          0.007326
   562.000000                     0.000058          0.006913
   563.000000                     0.000055          0.006549
   564.000000                     0.000052          0.006228
   565.000000                     0.000050          0.005943
   566.000000                     0.000048          0.005690
   567.000000                     0.000046          0.005466
   568.000000                     0.000044          0.005265
   569.000000                     0.000043          0.005087
   570.000000                     0.000041          0.004928
   571.000000                     0.000040          0.004786
   572.000000                     0.000039          0.004659
   573.000000                     0.000038          0.004546
   574.000000                     0.000037          0.004446
   575.000000                     0.000037          0.004356
   576.000000                     0.000036          0.004278
   577.000000                     0.000035          0.004209
   578.000000                     0.000035          0.004148
   579.000000                     0.000034          0.004096
   580.000000                     0.000034          0.004052
   581.000000                     0.000034          0.004015
   582.000000                     0.000033          0.003986
   583.000000                     0.000033          0.003963
   584.000000                     0.000033          0.003947
   585.000000                     0.000033          0.003938
   586.000000                     0.000033          0.003936
   587.000000                     0.000033          0.003940
   588.000000                     0.000033          0.003952
   589.000000                     0.000033          0.003972
   590.000000                     0.000034          0.003999
   591.000000                     0.000034          0.004035
   592.000000                     0.000034          0.004080
   593.000000                     0.000035          0.004136
   594.000000                     0.000035          0.004203
   595.000000                     0.000036          0.004284
   596.000000                     0.000037          0.004378
   597.000000                     0.000038          0.004488
   598.000000                     0.000039          0.004615
   599.000000                     0.000040          0.004760
   600.000000                     0.000041          0.004922
   601.000000                     0.000043          0.005099
   602.000000                     0.000044          0.005286
   603.000000                     0.000046          0.005471
   604.000000                     0.000047          0.005643
   605.000000                     0.000049          0.005784
   606.000000                     0.000049          0.005879
   607.000000                     0.000050          0.005918
   608.000000                     0.000050          0.005901
   609.000000                     0.000049          0.005837
   610.000000                     0.000048          0.005740
   611.000000                     0.000047          0.005629
   612.000000                     0.000046          0.005517
   613.000000                     0.000045          0.005414
   614.000000                     0.000045          0.005326
   615.000000                     0.000044          0.005255
   616.000000                     0.000044          0.005204
   617.000000                     0.000043          0.005170
   618.000000                     0.000043          0.005152
   619.000000                     0.000043          0.005150
   620.000000                     0.000043          0.005163
   621.000000                     0.000044          0.005187
   622.000000                     0.000044          0.005224
   623.000000                     0.000044          0.005271
   624.000000                     0.000045          0.005329
   625.000000                     0.000045          0.005396
   626.000000                     0.000046          0.005472
   627.000000                     0.000047          0.005558
   628.000000                     0.000047          0.005652
   629.000000                     0.000048          0.005755
   630.000000                     0.000049          0.005866
   631.000000                     0.000050          0.005987
   632.000000                     0.000051          0.006116
   633.000000                     0.000053          0.006256
   634.000000                     0.000054          0.006405
   635.000000                     0.000055          0.006564
   636.000000                     0.000057          0.006734
   637.000000                     0.000058          0.006915
   638.000000                     0.000060          0.007109
   639.000000                     0.000061          0.007316
   640.000000                     0.000063          0.007536
   641.000000                     0.000065          0.007772
   642.000000                     0.000067          0.008023
   643.000000                     0.000070          0.008292
   644.000000                     0.000072          0.008579
   645.000000                     0.000075          0.008887
   646.000000                     0.000077          0.009217
   647.000000                     0.000080          0.009571
   648.000000                     0.000084          0.009952
   649.000000                     0.000087          0.010362
   650.000000                     0.000091          0.010804
   651.000000                     0.000095          0.011282
   652.000000                     0.000099          0.011799
   653.000000                     0.000104          0.012359
   654.000000                     0.000109          0.012969
   655.000000                     0.000115          0.013632
   656.000000                     0.000121          0.014356
   657.000000                     0.000127          0.015149
   658.000000                     0.000135          0.016019
   659.000000                     0.000143          0.016976
   660.000000                     0.000151          0.018032
   661.000000                     0.000161          0.019201
   662.000000                     0.000172          0.020500
   663.000000                     0.000184          0.021946
   664.000000                     0.000198          0.023563
   665.000000                     0.000213          0.025377
   666.000000                     0.000230          0.027420
   667.000000                     0.000250          0.029729
   668.000000                     0.000272          0.032348
   669.000000                     0.000297          0.035330
   670.000000                     0.000325          0.038737
   671.000000                     0.000358          0.042642
   672.000000                     0.000396          0.047128
   673.000000                     0.000439          0.052291
   674.000000                     0.000489          0.058235
   675.000000                     0.000547          0.065066
   676.000000                     0.000612          0.072882
   677.000000                     0.000687          0.081746
   678.000000                     0.000770          0.091650
   679.000000                     0.000861          0.102461
   680.000000                     0.000956          0.113842
   681.000000                     0.001052          0.125190
   682.000000                     0.001139          0.135603
   683.000000                     0.001209          0.143958
   684.000000                     0.001253          0.149133
   685.000000                     0.001263          0.150340
   686.000000                     0.001238          0.147409
   687.000000                     0.001183          0.140852
   688.000000                     0.001106          0.131674
   689.000000                     0.001017          0.121035
   690.000000                     0.000924          0.109963
   691.000000                     0.000833          0.099213
   692.000000                     0.000750          0.089243
   693.000000                     0.000674          0.080279
   694.000000                     0.000608          0.072382
   695.000000                     0.000550          0.065521
   696.000000                     0.000501          0.059612
   697.000000                     0.000458          0.054554
   698.000000                     0.000422          0.050243
   699.000000                     0.000391          0.046580
   700.000000                     0.000365          0.043480
   701.000000                     0.000343          0.040866
   702.000000                     0.000325          0.038675
   703.000000                     0.000310          0.036854
   704.000000                     0.000297          0.035358
   705.000000                     0.000287          0.034151
   706.000000                     0.000279          0.033204
   707.000000                     0.000273          0.032495
   708.000000                     0.000269          0.032004
   709.000000                     0.000266          0.031719
   710.000000                     0.000266          0.031631
   711.000000                     0.000267          0.031734
   712.000000                     0.000269          0.032026
   713.000000                     0.000273          0.032510
   714.000000                     0.000279          0.033190
   715.000000                     0.000286          0.034075
   716.000000                     0.000295          0.035178
   717.000000                     0.000307          0.036517
   718.000000                     0.000320          0.038112
   719.000000                     0.000336          0.039991
   720.000000                     0.000354          0.042188
   721.000000                     0.000376          0.044744
   722.000000                     0.000401          0.047707
   723.000000                     0.000430          0.051139
   724.000000                     0.000463          0.055110
   725.000000                     0.000502          0.059707
   726.000000                     0.000546          0.065031
   727.000000                     0.000598          0.071202
   728.000000                     0.000658          0.078358
   729.000000                     0.000728          0.086656
   730.000000                     0.000809          0.096268
   731.000000                     0.000902          0.107364
   732.000000                     0.001009          0.120099
   733.000000                     0.001130          0.134564
   734.000000                     0.001266          0.150725
   735.000000                     0.001414          0.168322
   736.000000                     0.001569          0.186754
   737.000000                     0.001722          0.204964
   738.000000                     0.001860          0.221413
   739.000000                     0.001967          0.234236
   740.000000                     0.002030          0.241636
   741.000000                     0.002036          0.242434
   742.000000                     0.001987          0.236505
   743.000000                     0.001888          0.224826
   744.000000                     0.001756          0.209107
   745.000000                     0.001606          0.191242
   746.000000                     0.001452          0.172865
   747.000000                     0.001303          0.155142
   748.000000                     0.001166          0.138770
   749.000000                     0.001042          0.124073
   750.000000                     0.000933          0.111128
   751.000000                     0.000839          0.099868
   752.000000                     0.000757          0.090153
   753.000000                     0.000687          0.081816
   754.000000                     0.000627          0.074690
   755.000000                     0.000576          0.068620
   756.000000                     0.000533          0.063470
   757.000000                     0.000497          0.059126
   758.000000                     0.000466          0.055491
   759.000000                     0.000441          0.052487
   760.000000                     0.000420          0.050054
   761.000000                     0.000404          0.048147
   762.000000                     0.000393          0.046734
   763.000000                     0.000385          0.045795
   764.000000                     0.000381          0.045324
   765.000000                     0.000381          0.045323
   766.000000                     0.000385          0.045807
   767.000000                     0.000393          0.046795
   768.000000                     0.000406          0.048315
   769.000000                     0.000423          0.050388
   770.000000                     0.000445          0.053025
   771.000000                     0.000472          0.056206
   772.000000                     0.000503          0.059857
   773.000000                     0.000536          0.063814
   774.000000                     0.000569          0.067799
   775.000000                     0.000600          0.071406
   776.000000                     0.000623          0.074141
   777.000000                     0.000634          0.075526
   778.000000                     0.000632          0.075234
   779.000000                     0.000615          0.073214
   780.000000                     0.000585          0.069706
   781.000000                     0.000547          0.065151
   782.000000                     0.000504          0.060041
   783.000000                     0.000460          0.054810
   784.000000                     0.000418          0.049765
   785.000000                     0.000379          0.045093
   786.000000                     0.000343          0.040882
   787.000000                     0.000312          0.037153
   788.000000                     0.000285          0.033887
   789.000000                     0.000261          0.031046
   790.000000                     0.000240          0.028581
   791.000000                     0.000222          0.026444
   792.000000                     0.000207          0.024585
   793.000000                     0.000193          0.022958
   794.000000                     0.000181          0.021516
   795.000000                     0.000170          0.020221
   796.000000                     0.000160          0.019041
   797.000000                     0.000151          0.017952
   798.000000                     0.000142          0.016942
   799.000000                     0.000134          0.016004
   800.000000                     0.000127          0.015137
   801.000000                     0.000120          0.014339
   802.000000                     0.000114          0.013610
   803.000000                     0.000109          0.012945
   804.000000                     0.000104          0.012341
   805.000000                     0.000099          0.011791
   806.000000                     0.000095          0.011292
   807.000000                     0.000091          0.010837
   808.000000                     0.000088          0.010423
   809.000000                     0.000084          0.010045
   810.000000                     0.000081          0.009699
   811.000000                     0.000079          0.009382
   812.000000                     0.000076          0.009093
   813.000000                     0.000074          0.008827
   814.000000                     0.000072          0.008583
   815.000000                     0.000070          0.008359
   816.000000                     0.000068          0.008153
   817.000000                     0.000067          0.007965
   818.000000                     0.000065          0.007793
   819.000000                     0.000064          0.007636
   820.000000                     0.000063          0.007493
   821.000000                     0.000062          0.007363
   822.000000                     0.000061          0.007246
   823.000000                     0.000060          0.007142
   824.000000                     0.000059          0.007049
   825.000000                     0.000059          0.006969
